3996.02298,0.97227
3993.96317,0.97251
3991.90337,0.97243
3989.84356,0.97242
3987.78376,0.97252
3985.72395,0.97236
3983.66415,0.97215
3981.60434,0.97216
3979.54454,0.97220
3977.48473,0.97215
3975.42492,0.97192
3973.36512,0.97193
3971.30531,0.97254
3969.24551,0.97296
3967.18570,0.97264
3965.12590,0.97215
3963.06609,0.97209
3961.00628,0.97241
3958.94648,0.97251
3956.88667,0.97212
3954.82687,0.97179
3952.76706,0.97181
3950.70726,0.97174
3948.64745,0.97161
3946.58764,0.97187
3944.52784,0.97239
3942.46803,0.97269
3940.40823,0.97249
3938.34842,0.97224
3936.28862,0.97239
3934.22881,0.97279
3932.16901,0.97307
3930.10920,0.97310
3928.04939,0.97289
3925.98959,0.97239
3923.92978,0.97182
3921.86998,0.97170
3919.81017,0.97203
3917.75037,0.97256
3915.69056,0.97296
3913.63075,0.97282
3911.57095,0.97239
3909.51114,0.97235
3907.45134,0.97266
3905.39153,0.97311
3903.33173,0.97353
3901.27192,0.97344
3899.21211,0.97273
3897.15231,0.97206
3895.09250,0.97190
3893.03270,0.97207
3890.97289,0.97228
3888.91309,0.97252
3886.85328,0.97281
3884.79347,0.97309
3882.73367,0.97325
3880.67386,0.97284
3878.61406,0.97226
3876.55425,0.97232
3874.49445,0.97281
3872.43464,0.97322
3870.37484,0.97287
3868.31503,0.97223
3866.25522,0.97238
3864.19542,0.97255
3862.13561,0.97238
3860.07581,0.97278
3858.01600,0.97367
3855.95620,0.97442
3853.89639,0.97450
3851.83658,0.97374
3849.77678,0.97322
3847.71697,0.97304
3845.65717,0.97333
3843.59736,0.97382
3841.53756,0.97369
3839.47775,0.97315
3837.41794,0.97296
3835.35814,0.97296
3833.29833,0.97322
3831.23853,0.97391
3829.17872,0.97408
3827.11892,0.97357
3825.05911,0.97358
3822.99931,0.97403
3820.93950,0.97357
3818.87969,0.97272
3816.81989,0.97295
3814.76008,0.97374
3812.70028,0.97428
3810.64047,0.97460
3808.58067,0.97476
3806.52086,0.97432
3804.46105,0.97381
3802.40125,0.97367
3800.34144,0.97348
3798.28164,0.97367
3796.22183,0.97408
3794.16203,0.97441
3792.10222,0.97472
3790.04241,0.97468
3787.98261,0.97434
3785.92280,0.97396
3783.86300,0.97366
3781.80319,0.97392
3779.74339,0.97461
3777.68358,0.97496
3775.62377,0.97498
3773.56397,0.97490
3771.50416,0.97463
3769.44436,0.97415
3767.38455,0.97412
3765.32475,0.97447
3763.26494,0.97474
3761.20514,0.97521
3759.14533,0.97565
3757.08552,0.97573
3755.02572,0.97571
3752.96591,0.97552
3750.90611,0.97493
3748.84630,0.97408
3746.78650,0.97353
3744.72669,0.97337
3742.66688,0.97376
3740.60708,0.97445
3738.54727,0.97513
3736.48747,0.97556
3734.42766,0.97537
3732.36786,0.97503
3730.30805,0.97519
3728.24824,0.97519
3726.18844,0.97484
3724.12863,0.97495
3722.06883,0.97534
3720.00902,0.97535
3717.94922,0.97549
3715.88941,0.97580
3713.82961,0.97552
3711.76980,0.97447
3709.70999,0.97411
3707.65019,0.97451
3705.59038,0.97483
3703.53058,0.97516
3701.47077,0.97544
3699.41097,0.97572
3697.35116,0.97584
3695.29135,0.97573
3693.23155,0.97563
3691.17174,0.97541
3689.11194,0.97506
3687.05213,0.97452
3684.99233,0.97419
3682.93252,0.97428
3680.87271,0.97441
3678.81291,0.97454
3676.75310,0.97461
3674.69330,0.97410
3672.63349,0.97390
3670.57369,0.97403
3668.51388,0.97378
3666.45407,0.97330
3664.39427,0.97232
3662.33446,0.97141
3660.27466,0.97149
3658.21485,0.97180
3656.15505,0.97122
3654.09524,0.97040
3652.03544,0.97020
3649.97563,0.97023
3647.91582,0.97010
3645.85602,0.97026
3643.79621,0.97073
3641.73641,0.97092
3639.67660,0.97098
3637.61680,0.97104
3635.55699,0.97084
3633.49718,0.97073
3631.43738,0.97068
3629.37757,0.96979
3627.31777,0.96862
3625.25796,0.96870
3623.19816,0.96935
3621.13835,0.96980
3619.07854,0.96957
3617.01874,0.96909
3614.95893,0.96884
3612.89913,0.96854
3610.83932,0.96828
3608.77952,0.96788
3606.71971,0.96749
3604.65991,0.96747
3602.60010,0.96747
3600.54029,0.96740
3598.48049,0.96707
3596.42068,0.96658
3594.36088,0.96641
3592.30107,0.96641
3590.24127,0.96631
3588.18146,0.96638
3586.12165,0.96661
3584.06185,0.96642
3582.00204,0.96563
3579.94224,0.96488
3577.88243,0.96479
3575.82263,0.96497
3573.76282,0.96493
3571.70301,0.96459
3569.64321,0.96382
3567.58340,0.96293
3565.52360,0.96257
3563.46379,0.96266
3561.40399,0.96243
3559.34418,0.96176
3557.28437,0.96124
3555.22457,0.96104
3553.16476,0.96071
3551.10496,0.96004
3549.04515,0.95943
3546.98535,0.95896
3544.92554,0.95864
3542.86574,0.95860
3540.80593,0.95849
3538.74612,0.95819
3536.68632,0.95787
3534.62651,0.95764
3532.56671,0.95751
3530.50690,0.95709
3528.44710,0.95639
3526.38729,0.95609
3524.32748,0.95603
3522.26768,0.95575
3520.20787,0.95576
3518.14807,0.95610
3516.08826,0.95625
3514.02846,0.95599
3511.96865,0.95535
3509.90884,0.95498
3507.84904,0.95510
3505.78923,0.95512
3503.72943,0.95476
3501.66962,0.95410
3499.60982,0.95356
3497.55001,0.95336
3495.49021,0.95321
3493.43040,0.95290
3491.37059,0.95281
3489.31079,0.95303
3487.25098,0.95294
3485.19118,0.95252
3483.13137,0.95221
3481.07157,0.95182
3479.01176,0.95134
3476.95195,0.95100
3474.89215,0.95082
3472.83234,0.95077
3470.77254,0.95055
3468.71273,0.95021
3466.65293,0.94996
3464.59312,0.94961
3462.53331,0.94917
3460.47351,0.94886
3458.41370,0.94876
3456.35390,0.94870
3454.29409,0.94848
3452.23429,0.94809
3450.17448,0.94780
3448.11468,0.94763
3446.05487,0.94726
3443.99506,0.94699
3441.93526,0.94705
3439.87545,0.94708
3437.81565,0.94681
3435.75584,0.94629
3433.69604,0.94576
3431.63623,0.94517
3429.57642,0.94458
3427.51662,0.94436
3425.45681,0.94450
3423.39701,0.94446
3421.33720,0.94392
3419.27740,0.94298
3417.21759,0.94217
3415.15778,0.94172
3413.09798,0.94150
3411.03817,0.94130
3408.97837,0.94071
3406.91856,0.94007
3404.85876,0.93999
3402.79895,0.93989
3400.73914,0.93938
3398.67934,0.93881
3396.61953,0.93855
3394.55973,0.93858
3392.49992,0.93827
3390.44012,0.93759
3388.38031,0.93735
3386.32051,0.93743
3384.26070,0.93726
3382.20089,0.93686
3380.14109,0.93658
3378.08128,0.93662
3376.02148,0.93661
3373.96167,0.93646
3371.90187,0.93624
3369.84206,0.93583
3367.78225,0.93558
3365.72245,0.93566
3363.66264,0.93567
3361.60284,0.93542
3359.54303,0.93517
3357.48323,0.93502
3355.42342,0.93466
3353.36361,0.93422
3351.30381,0.93407
3349.24400,0.93389
3347.18420,0.93356
3345.12439,0.93323
3343.06459,0.93296
3341.00478,0.93275
3338.94498,0.93264
3336.88517,0.93272
3334.82536,0.93242
3332.76556,0.93161
3330.70575,0.93121
3328.64595,0.93141
3326.58614,0.93174
3324.52634,0.93184
3322.46653,0.93181
3320.40672,0.93188
3318.34692,0.93168
3316.28711,0.93108
3314.22731,0.93053
3312.16750,0.93033
3310.10770,0.93023
3308.04789,0.92992
3305.98808,0.92953
3303.92828,0.92925
3301.86847,0.92918
3299.80867,0.92903
3297.74886,0.92866
3295.68906,0.92843
3293.62925,0.92849
3291.56944,0.92868
3289.50964,0.92871
3287.44983,0.92853
3285.39003,0.92831
3283.33022,0.92790
3281.27042,0.92723
3279.21061,0.92679
3277.15081,0.92677
3275.09100,0.92689
3273.03119,0.92685
3270.97139,0.92657
3268.91158,0.92647
3266.85178,0.92654
3264.79197,0.92631
3262.73217,0.92621
3260.67236,0.92657
3258.61255,0.92676
3256.55275,0.92648
3254.49294,0.92611
3252.43314,0.92596
3250.37333,0.92593
3248.31353,0.92581
3246.25372,0.92549
3244.19391,0.92509
3242.13411,0.92482
3240.07430,0.92474
3238.01450,0.92481
3235.95469,0.92461
3233.89489,0.92437
3231.83508,0.92444
3229.77528,0.92443
3227.71547,0.92414
3225.65566,0.92368
3223.59586,0.92338
3221.53605,0.92348
3219.47625,0.92364
3217.41644,0.92355
3215.35664,0.92309
3213.29683,0.92243
3211.23702,0.92212
3209.17722,0.92217
3207.11741,0.92218
3205.05761,0.92206
3202.99780,0.92183
3200.93800,0.92162
3198.87819,0.92134
3196.81838,0.92085
3194.75858,0.92045
3192.69877,0.92026
3190.63897,0.92008
3188.57916,0.91990
3186.51936,0.91997
3184.45955,0.92034
3182.39974,0.92061
3180.33994,0.92036
3178.28013,0.91966
3176.22033,0.91887
3174.16052,0.91838
3172.10072,0.91821
3170.04091,0.91803
3167.98111,0.91777
3165.92130,0.91758
3163.86149,0.91730
3161.80169,0.91679
3159.74188,0.91640
3157.68208,0.91613
3155.62227,0.91551
3153.56247,0.91468
3151.50266,0.91430
3149.44285,0.91438
3147.38305,0.91440
3145.32324,0.91439
3143.26344,0.91443
3141.20363,0.91444
3139.14383,0.91446
3137.08402,0.91435
3135.02421,0.91415
3132.96441,0.91394
3130.90460,0.91383
3128.84480,0.91399
3126.78499,0.91407
3124.72519,0.91383
3122.66538,0.91359
3120.60558,0.91370
3118.54577,0.91403
3116.48596,0.91417
3114.42616,0.91397
3112.36635,0.91371
3110.30655,0.91382
3108.24674,0.91407
3106.18694,0.91393
3104.12713,0.91360
3102.06732,0.91338
3100.00752,0.91318
3097.94771,0.91280
3095.88791,0.91236
3093.82810,0.91206
3091.76830,0.91171
3089.70849,0.91131
3087.64868,0.91096
3085.58888,0.91054
3083.52907,0.91011
3081.46927,0.90970
3079.40946,0.90914
3077.34966,0.90868
3075.28985,0.90853
3073.23004,0.90845
3071.17024,0.90819
3069.11043,0.90797
3067.05063,0.90814
3064.99082,0.90831
3062.93102,0.90831
3060.87121,0.90854
3058.81141,0.90904
3056.75160,0.90956
3054.69179,0.90984
3052.63199,0.91007
3050.57218,0.91047
3048.51238,0.91077
3046.45257,0.91093
3044.39277,0.91114
3042.33296,0.91123
3040.27315,0.91120
3038.21335,0.91135
3036.15354,0.91162
3034.09374,0.91173
3032.03393,0.91159
3029.97413,0.91146
3027.91432,0.91172
3025.85451,0.91239
3023.79471,0.91289
3021.73490,0.91298
3019.67510,0.91294
3017.61529,0.91290
3015.55549,0.91295
3013.49568,0.91312
3011.43588,0.91339
3009.37607,0.91369
3007.31626,0.91390
3005.25646,0.91402
3003.19665,0.91401
3001.13685,0.91405
2999.07704,0.91425
2997.01724,0.91449
2994.95743,0.91463
2992.89762,0.91450
2990.83782,0.91420
2988.77801,0.91407
2986.71821,0.91400
2984.65840,0.91387
2982.59860,0.91368
2980.53879,0.91337
2978.47898,0.91315
2976.41918,0.91330
2974.35937,0.91362
2972.29957,0.91374
2970.23976,0.91371
2968.17996,0.91387
2966.12015,0.91415
2964.06034,0.91418
2962.00054,0.91404
2959.94073,0.91401
2957.88093,0.91409
2955.82112,0.91424
2953.76132,0.91453
2951.70151,0.91485
2949.64171,0.91496
2947.58190,0.91492
2945.52209,0.91491
2943.46229,0.91503
2941.40248,0.91521
2939.34268,0.91527
2937.28287,0.91517
2935.22307,0.91511
2933.16326,0.91517
2931.10345,0.91532
2929.04365,0.91551
2926.98384,0.91583
2924.92404,0.91619
2922.86423,0.91647
2920.80443,0.91662
2918.74462,0.91648
2916.68481,0.91641
2914.62501,0.91659
2912.56520,0.91665
2910.50540,0.91679
2908.44559,0.91707
2906.38579,0.91721
2904.32598,0.91733
2902.26618,0.91745
2900.20637,0.91754
2898.14656,0.91771
2896.08676,0.91799
2894.02695,0.91835
2891.96715,0.91867
2889.90734,0.91893
2887.84754,0.91906
2885.78773,0.91906
2883.72792,0.91908
2881.66812,0.91922
2879.60831,0.91930
2877.54851,0.91913
2875.48870,0.91897
2873.42890,0.91908
2871.36909,0.91925
2869.30928,0.91933
2867.24948,0.91945
2865.18967,0.91953
2863.12987,0.91941
2861.07006,0.91911
2859.01026,0.91873
2856.95045,0.91846
2854.89064,0.91848
2852.83084,0.91857
2850.77103,0.91842
2848.71123,0.91819
2846.65142,0.91813
2844.59162,0.91827
2842.53181,0.91848
2840.47201,0.91867
2838.41220,0.91887
2836.35239,0.91902
2834.29259,0.91904
2832.23278,0.91901
2830.17298,0.91892
2828.11317,0.91875
2826.05337,0.91859
2823.99356,0.91856
2821.93375,0.91867
2819.87395,0.91863
2817.81414,0.91848
2815.75434,0.91846
2813.69453,0.91844
2811.63473,0.91827
2809.57492,0.91826
2807.51511,0.91859
2805.45531,0.91883
2803.39550,0.91869
2801.33570,0.91839
2799.27589,0.91840
2797.21609,0.91888
2795.15628,0.91953
2793.09648,0.91985
2791.03667,0.91976
2788.97686,0.91968
2786.91706,0.91974
2784.85725,0.91993
2782.79745,0.92024
2780.73764,0.92068
2778.67784,0.92122
2776.61803,0.92169
2774.55822,0.92204
2772.49842,0.92221
2770.43861,0.92221
2768.37881,0.92219
2766.31900,0.92210
2764.25920,0.92211
2762.19939,0.92243
2760.13958,0.92262
2758.07978,0.92244
2756.01997,0.92224
2753.96017,0.92211
2751.90036,0.92200
2749.84056,0.92195
2747.78075,0.92198
2745.72094,0.92202
2743.66114,0.92211
2741.60133,0.92214
2739.54153,0.92185
2737.48172,0.92145
2735.42192,0.92141
2733.36211,0.92165
2731.30231,0.92175
2729.24250,0.92164
2727.18269,0.92151
2725.12289,0.92144
2723.06308,0.92143
2721.00328,0.92143
2718.94347,0.92143
2716.88367,0.92154
2714.82386,0.92164
2712.76405,0.92154
2710.70425,0.92144
2708.64444,0.92147
2706.58464,0.92145
2704.52483,0.92128
2702.46503,0.92113
2700.40522,0.92104
2698.34541,0.92081
2696.28561,0.92051
2694.22580,0.92039
2692.16600,0.92036
2690.10619,0.92038
2688.04639,0.92054
2685.98658,0.92069
2683.92678,0.92060
2681.86697,0.92051
2679.80716,0.92059
2677.74736,0.92065
2675.68755,0.92071
2673.62775,0.92089
2671.56794,0.92113
2669.50814,0.92137
2667.44833,0.92160
2665.38852,0.92177
2663.32872,0.92182
2661.26891,0.92172
2659.20911,0.92169
2657.14930,0.92189
2655.08950,0.92194
2653.02969,0.92182
2650.96988,0.92201
2648.91008,0.92234
2646.85027,0.92227
2644.79047,0.92215
2642.73066,0.92231
2640.67086,0.92246
2638.61105,0.92225
2636.55124,0.92182
2634.49144,0.92157
2632.43163,0.92157
2630.37183,0.92155
2628.31202,0.92135
2626.25222,0.92119
2624.19241,0.92104
2622.13261,0.92087
2620.07280,0.92075
2618.01299,0.92056
2615.95319,0.92025
2613.89338,0.91976
2611.83358,0.91919
2609.77377,0.91894
2607.71397,0.91912
2605.65416,0.91919
2603.59435,0.91873
2601.53455,0.91787
2599.47474,0.91720
2597.41494,0.91720
2595.35513,0.91728
2593.29533,0.91704
2591.23552,0.91674
2589.17571,0.91668
2587.11591,0.91684
2585.05610,0.91700
2582.99630,0.91721
2580.93649,0.91753
2578.87669,0.91751
2576.81688,0.91694
2574.75708,0.91646
2572.69727,0.91658
2570.63746,0.91706
2568.57766,0.91763
2566.51785,0.91802
2564.45805,0.91812
2562.39824,0.91824
2560.33844,0.91846
2558.27863,0.91841
2556.21882,0.91800
2554.15902,0.91767
2552.09921,0.91777
2550.03941,0.91819
2547.97960,0.91868
2545.91980,0.91885
2543.85999,0.91855
2541.80018,0.91854
2539.74038,0.91917
2537.68057,0.91974
2535.62077,0.91990
2533.56096,0.92004
2531.50116,0.92021
2529.44135,0.92018
2527.38154,0.91992
2525.32174,0.91951
2523.26193,0.91949
2521.20213,0.92012
2519.14232,0.92093
2517.08252,0.92129
2515.02271,0.92100
2512.96291,0.92082
2510.90310,0.92095
2508.84329,0.92080
2506.78349,0.92034
2504.72368,0.91983
2502.66388,0.91964
2500.60407,0.92009
2498.54427,0.92073
2496.48446,0.92076
2494.42465,0.92042
2492.36485,0.92039
2490.30504,0.92036
2488.24524,0.92014
2486.18543,0.91998
2484.12563,0.91971
2482.06582,0.91953
2480.00601,0.92002
2477.94621,0.92077
2475.88640,0.92070
2473.82660,0.92011
2471.76679,0.92012
2469.70699,0.92071
2467.64718,0.92098
2465.58738,0.92100
2463.52757,0.92113
2461.46776,0.92096
2459.40796,0.92073
2457.34815,0.92116
2455.28835,0.92199
2453.22854,0.92240
2451.16874,0.92227
2449.10893,0.92229
2447.04912,0.92274
2444.98932,0.92319
2442.92951,0.92340
2440.86971,0.92348
2438.80990,0.92347
2436.75010,0.92344
2434.69029,0.92369
2432.63048,0.92417
2430.57068,0.92439
2428.51087,0.92414
2426.45107,0.92400
2424.39126,0.92426
2422.33146,0.92464
2420.27165,0.92512
2418.21184,0.92559
2416.15204,0.92586
2414.09223,0.92616
2412.03243,0.92642
2409.97262,0.92655
2407.91282,0.92668
2405.85301,0.92676
2403.79321,0.92691
2401.73340,0.92695
2399.67359,0.92694
2397.61379,0.92728
2395.55398,0.92764
2393.49418,0.92770
2391.43437,0.92763
2389.37457,0.92754
2387.31476,0.92761
2385.25495,0.92795
2383.19515,0.92837
2381.13534,0.92879
2379.07554,0.92948
2377.01573,0.93021
2374.95593,0.93049
2372.89612,0.93058
2370.83631,0.93072
2368.77651,0.93083
2366.71670,0.93098
2364.65690,0.93097
2362.59709,0.93101
2360.53729,0.93150
2358.47748,0.93195
2356.41768,0.93188
2354.35787,0.93151
2352.29806,0.93114
2350.23826,0.93126
2348.17845,0.93214
2346.11865,0.93330
2344.05884,0.93379
2341.99904,0.93362
2339.93923,0.93356
2337.87942,0.93382
2335.81962,0.93434
2333.75981,0.93501
2331.70001,0.93540
2329.64020,0.93545
2327.58040,0.93553
2325.52059,0.93544
2323.46078,0.93519
2321.40098,0.93502
2319.34117,0.93482
2317.28137,0.93486
2315.22156,0.93534
2313.16176,0.93575
2311.10195,0.93586
2309.04214,0.93628
2306.98234,0.93723
2304.92253,0.93770
2302.86273,0.93741
2300.80292,0.93725
2298.74312,0.93761
2296.68331,0.93808
2294.62351,0.93839
2292.56370,0.93861
2290.50389,0.93881
2288.44409,0.93906
2286.38428,0.93944
2284.32448,0.93995
2282.26467,0.94047
2280.20487,0.94066
2278.14506,0.94080
2276.08525,0.94137
2274.02545,0.94148
2271.96564,0.94081
2269.90584,0.94058
2267.84603,0.94125
2265.78623,0.94180
2263.72642,0.94197
2261.66661,0.94254
2259.60681,0.94339
2257.54700,0.94371
2255.48720,0.94315
2253.42739,0.94246
2251.36759,0.94285
2249.30778,0.94410
2247.24798,0.94448
2245.18817,0.94342
2243.12836,0.94236
2241.06856,0.94276
2239.00875,0.94420
2236.94895,0.94478
2234.88914,0.94438
2232.82934,0.94421
2230.76953,0.94418
2228.70972,0.94388
2226.64992,0.94373
2224.59011,0.94415
2222.53031,0.94470
2220.47050,0.94466
2218.41070,0.94437
2216.35089,0.94464
2214.29108,0.94565
2212.23128,0.94710
2210.17147,0.94793
2208.11167,0.94791
2206.05186,0.94779
2203.99206,0.94794
2201.93225,0.94833
2199.87244,0.94851
2197.81264,0.94852
2195.75283,0.94886
2193.69303,0.94887
2191.63322,0.94813
2189.57342,0.94718
2187.51361,0.94582
2185.45381,0.94503
2183.39400,0.94618
2181.33419,0.94808
2179.27439,0.94934
2177.21458,0.94977
2175.15478,0.94900
2173.09497,0.94734
2171.03517,0.94716
2168.97536,0.94870
2166.91555,0.94982
2164.85575,0.94989
2162.79594,0.94893
2160.73614,0.94865
2158.67633,0.95147
2156.61653,0.95460
2154.55672,0.95463
2152.49691,0.95252
2150.43711,0.95087
2148.37730,0.95102
2146.31750,0.95168
2144.25769,0.95129
2142.19789,0.95069
2140.13808,0.95085
2138.07828,0.95109
2136.01847,0.95107
2133.95866,0.95136
2131.89886,0.95169
2129.83905,0.95167
2127.77925,0.95120
2125.71944,0.95067
2123.65964,0.95063
2121.59983,0.95020
2119.54002,0.94969
2117.48022,0.95020
2115.42041,0.95065
2113.36061,0.95052
2111.30080,0.95066
2109.24100,0.95069
2107.18119,0.94983
2105.12138,0.94895
2103.06158,0.94896
2101.00177,0.94903
2098.94197,0.94914
2096.88216,0.95022
2094.82236,0.95115
2092.76255,0.95128
2090.70274,0.95118
2088.64294,0.95053
2086.58313,0.94971
2084.52333,0.94914
2082.46352,0.94842
2080.40372,0.94828
2078.34391,0.94921
2076.28411,0.95005
2074.22430,0.94969
2072.16449,0.94826
2070.10469,0.94687
2068.04488,0.94693
2065.98508,0.94806
2063.92527,0.94833
2061.86547,0.94771
2059.80566,0.94739
2057.74585,0.94703
2055.68605,0.94608
2053.62624,0.94566
2051.56644,0.94650
2049.50663,0.94712
2047.44683,0.94720
2045.38702,0.94793
2043.32721,0.94781
2041.26741,0.94643
2039.20760,0.94614
2037.14780,0.94691
2035.08799,0.94755
2033.02819,0.94778
2030.96838,0.94692
2028.90858,0.94621
2026.84877,0.94738
2024.78896,0.94737
2022.72916,0.94478
2020.66935,0.94406
2018.60955,0.94585
2016.54974,0.94602
2014.48994,0.94471
2012.43013,0.94460
2010.37032,0.94550
2008.31052,0.94651
2006.25071,0.94696
2004.19091,0.94707
2002.13110,0.94730
2000.07130,0.94641
1998.01149,0.94452
1995.95168,0.94374
1993.89188,0.94419
1991.83207,0.94416
1989.77227,0.94340
1987.71246,0.94306
1985.65266,0.94344
1983.59285,0.94466
1981.53305,0.94620
1979.47324,0.94607
1977.41343,0.94397
1975.35363,0.94235
1973.29382,0.94232
1971.23402,0.94218
1969.17421,0.94106
1967.11441,0.94071
1965.05460,0.94060
1962.99479,0.93915
1960.93499,0.93856
1958.87518,0.93918
1956.81538,0.93920
1954.75557,0.93957
1952.69577,0.93983
1950.63596,0.93891
1948.57615,0.93860
1946.51635,0.93985
1944.45654,0.94079
1942.39674,0.93994
1940.33693,0.93874
1938.27713,0.93887
1936.21732,0.93967
1934.15751,0.93982
1932.09771,0.93911
1930.03790,0.93863
1927.97810,0.93862
1925.91829,0.93865
1923.85849,0.93914
1921.79868,0.93990
1919.73888,0.93997
1917.67907,0.93960
1915.61926,0.93923
1913.55946,0.93884
1911.49965,0.93896
1909.43985,0.93943
1907.38004,0.93932
1905.32024,0.93895
1903.26043,0.93875
1901.20062,0.93890
1899.14082,0.93961
1897.08101,0.94021
1895.02121,0.94004
1892.96140,0.93961
1890.90160,0.93974
1888.84179,0.94027
1886.78198,0.94062
1884.72218,0.94079
1882.66237,0.94088
1880.60257,0.94100
1878.54276,0.94129
1876.48296,0.94146
1874.42315,0.94135
1872.36335,0.94147
1870.30354,0.94167
1868.24373,0.94118
1866.18393,0.94079
1864.12412,0.94140
1862.06432,0.94213
1860.00451,0.94212
1857.94471,0.94182
1855.88490,0.94194
1853.82509,0.94239
1851.76529,0.94304
1849.70548,0.94360
1847.64568,0.94378
1845.58587,0.94375
1843.52607,0.94384
1841.46626,0.94408
1839.40645,0.94415
1837.34665,0.94408
1835.28684,0.94405
1833.22704,0.94419
1831.16723,0.94444
1829.10743,0.94464
1827.04762,0.94497
1824.98781,0.94519
1822.92801,0.94520
1820.86820,0.94529
1818.80840,0.94535
1816.74859,0.94523
1814.68879,0.94514
1812.62898,0.94504
1810.56918,0.94483
1808.50937,0.94483
1806.44956,0.94501
1804.38976,0.94497
1802.32995,0.94483
1800.27015,0.94478
1798.21034,0.94497
1796.15054,0.94536
1794.09073,0.94556
1792.03092,0.94540
1789.97112,0.94531
1787.91131,0.94549
1785.85151,0.94548
1783.79170,0.94537
1781.73190,0.94562
1779.67209,0.94595
1777.61228,0.94630
1775.55248,0.94675
1773.49267,0.94699
1771.43287,0.94689
1769.37306,0.94694
1767.31326,0.94734
1765.25345,0.94794
1763.19365,0.94829
1761.13384,0.94819
1759.07403,0.94825
1757.01423,0.94835
1754.95442,0.94832
1752.89462,0.94865
1750.83481,0.94888
1748.77501,0.94845
1746.71520,0.94814
1744.65539,0.94794
1742.59559,0.94749
1740.53578,0.94676
1738.47598,0.94621
1736.41617,0.94590
1734.35637,0.94396
1732.29656,0.94013
1730.23675,0.93727
1728.17695,0.93449
1726.11714,0.93124
1724.05734,0.92718
1721.99753,0.92293
1719.93773,0.91915
1717.87792,0.91381
1715.81811,0.90726
1713.75831,0.90287
1711.69850,0.89951
1709.63870,0.89637
1707.57889,0.89312
1705.51909,0.88927
1703.45928,0.88656
1701.39948,0.88501
1699.33967,0.88233
1697.27986,0.87993
1695.22006,0.87827
1693.16025,0.87800
1691.10045,0.87888
1689.04064,0.87970
1686.98084,0.88059
1684.92103,0.88123
1682.86122,0.88166
1680.80142,0.88354
1678.74161,0.88604
1676.68181,0.88825
1674.62200,0.89030
1672.56220,0.89253
1670.50239,0.89493
1668.44258,0.89711
1666.38278,0.89914
1664.32297,0.90154
1662.26317,0.90400
1660.20336,0.90586
1658.14356,0.90741
1656.08375,0.90912
1654.02395,0.91070
1651.96414,0.91159
1649.90433,0.91265
1647.84453,0.91325
1645.78472,0.91265
1643.72492,0.91235
1641.66511,0.91267
1639.60531,0.91344
1637.54550,0.91477
1635.48569,0.91580
1633.42589,0.91593
1631.36608,0.91581
1629.30628,0.91458
1627.24647,0.91162
1625.18667,0.90744
1623.12686,0.90107
1621.06705,0.89395
1619.00725,0.88706
1616.94744,0.87498
1614.88764,0.86131
1612.82783,0.85535
1610.76803,0.85436
1608.70822,0.85559
1606.64841,0.85712
1604.58861,0.85753
1602.52880,0.85680
1600.46900,0.85617
1598.40919,0.85669
1596.34939,0.85820
1594.28958,0.85939
1592.22978,0.85866
1590.16997,0.85567
1588.11016,0.85203
1586.05036,0.85010
1583.99055,0.85103
1581.93075,0.85426
1579.87094,0.85829
1577.81114,0.86197
1575.75133,0.86513
1573.69152,0.86750
1571.63172,0.86906
1569.57191,0.86967
1567.51211,0.87008
1565.45230,0.87134
1563.39250,0.87335
1561.33269,0.87594
1559.27288,0.87870
1557.21308,0.88079
1555.15327,0.88255
1553.09347,0.88394
1551.03366,0.88466
1548.97386,0.88488
1546.91405,0.88522
1544.85425,0.88571
1542.79444,0.88606
1540.73463,0.88569
1538.67483,0.88544
1536.61502,0.88709
1534.55522,0.88908
1532.49541,0.89055
1530.43561,0.89218
1528.37580,0.89457
1526.31599,0.89736
1524.25619,0.89984
1522.19638,0.90168
1520.13658,0.90288
1518.07677,0.90324
1516.01697,0.90211
1513.95716,0.90010
1511.89735,0.89802
1509.83755,0.89623
1507.77774,0.89392
1505.71794,0.89104
1503.65813,0.89127
1501.59833,0.89241
1499.53852,0.89172
1497.47871,0.88581
1495.41891,0.87438
1493.35910,0.86335
1491.29930,0.85157
1489.23949,0.83526
1487.17969,0.82077
1485.11988,0.81363
1483.06008,0.81320
1481.00027,0.81897
1478.94046,0.82874
1476.88066,0.84024
1474.82085,0.85223
1472.76105,0.86350
1470.70124,0.87138
1468.64144,0.87515
1466.58163,0.87594
1464.52182,0.87307
1462.46202,0.86871
1460.40221,0.86454
1458.34241,0.85462
1456.28260,0.83326
1454.22280,0.81868
1452.16299,0.81337
1450.10318,0.81331
1448.04338,0.81874
1445.98357,0.82754
1443.92377,0.83670
1441.86396,0.84591
1439.80416,0.85442
1437.74435,0.86209
1435.68455,0.86907
1433.62474,0.87375
1431.56493,0.87624
1429.50513,0.87667
1427.44532,0.87539
1425.38552,0.87261
1423.32571,0.86776
1421.26591,0.86083
1419.20610,0.84967
1417.14629,0.83896
1415.08649,0.83689
1413.02668,0.84110
1410.96688,0.84871
1408.90707,0.85683
1406.84727,0.86327
1404.78746,0.86731
1402.72765,0.86867
1400.66785,0.86773
1398.60804,0.86479
1396.54824,0.86099
1394.48843,0.85737
1392.42863,0.85503
1390.36882,0.85391
1388.30901,0.85231
1386.24921,0.84976
1384.18940,0.84749
1382.12960,0.84569
1380.06979,0.84441
1378.00999,0.84422
1375.95018,0.84495
1373.89038,0.84607
1371.83057,0.84758
1369.77076,0.84940
1367.71096,0.85125
1365.65115,0.85307
1363.59135,0.85472
1361.53154,0.85629
1359.47174,0.85829
1357.41193,0.86070
1355.35212,0.86315
1353.29232,0.86551
1351.23251,0.86780
1349.17271,0.87004
1347.11290,0.87206
1345.05310,0.87348
1342.99329,0.87421
1340.93348,0.87427
1338.87368,0.87363
1336.81387,0.87265
1334.75407,0.87128
1332.69426,0.86888
1330.63446,0.86493
1328.57465,0.85933
1326.51485,0.85257
1324.45504,0.84559
1322.39523,0.83915
1320.33543,0.83288
1318.27562,0.82555
1316.21582,0.81768
1314.15601,0.81108
1312.09621,0.80688
1310.03640,0.80536
1307.97659,0.80612
1305.91679,0.80860
1303.85698,0.81230
1301.79718,0.81658
1299.73737,0.82046
1297.67757,0.82303
1295.61776,0.82401
1293.55795,0.82356
1291.49815,0.82201
1289.43834,0.82003
1287.37854,0.81806
1285.31873,0.81596
1283.25893,0.81368
1281.19912,0.81170
1279.13931,0.81066
1277.07951,0.81074
1275.01970,0.81189
1272.95990,0.81391
1270.90009,0.81623
1268.84029,0.81785
1266.78048,0.81778
1264.72068,0.81583
1262.66087,0.81295
1260.60106,0.81011
1258.54126,0.80787
1256.48145,0.80664
1254.42165,0.80639
1252.36184,0.80663
1250.30204,0.80696
1248.24223,0.80708
1246.18242,0.80675
1244.12262,0.80567
1242.06281,0.80367
1240.00301,0.80075
1237.94320,0.79716
1235.88340,0.79372
1233.82359,0.79140
1231.76378,0.79043
1229.70398,0.79012
1227.64417,0.78977
1225.58437,0.78927
1223.52456,0.78824
1221.46476,0.78590
1219.40495,0.78187
1217.34515,0.77646
1215.28534,0.77085
1213.22553,0.76697
1211.16573,0.76644
1209.10592,0.76927
1207.04612,0.77414
1204.98631,0.77981
1202.92651,0.78567
1200.86670,0.79146
1198.80689,0.79710
1196.74709,0.80273
1194.68728,0.80841
1192.62748,0.81391
1190.56767,0.81906
1188.50787,0.82395
1186.44806,0.82868
1184.38825,0.83316
1182.32845,0.83725
1180.26864,0.84105
1178.20884,0.84467
1176.14903,0.84765
1174.08923,0.84917
1172.02942,0.84881
1169.96961,0.84670
1167.90981,0.84370
1165.85000,0.84170
1163.79020,0.84208
1161.73039,0.84413
1159.67059,0.84609
1157.61078,0.84737
1155.55098,0.84862
1153.49117,0.85031
1151.43136,0.85259
1149.37156,0.85476
1147.31175,0.85558
1145.25195,0.85489
1143.19214,0.85386
1141.13234,0.85344
1139.07253,0.85368
1137.01272,0.85437
1134.95292,0.85565
1132.89311,0.85785
1130.83331,0.86091
1128.77350,0.86414
1126.71370,0.86672
1124.65389,0.86813
1122.59408,0.86838
1120.53428,0.86769
1118.47447,0.86601
1116.41467,0.86314
1114.35486,0.85901
1112.29506,0.85352
1110.23525,0.84670
1108.17545,0.83849
1106.11564,0.82960
1104.05583,0.82244
1101.99603,0.81902
1099.93622,0.81910
1097.87642,0.82163
1095.81661,0.82619
1093.75681,0.83240
1091.69700,0.83924
1089.63719,0.84526
1087.57739,0.84929
1085.51758,0.85154
1083.45778,0.85271
1081.39797,0.85263
1079.33817,0.85139
1077.27836,0.84962
1075.21855,0.84799
1073.15875,0.84715
1071.09894,0.84739
1069.03914,0.84893
1066.97933,0.85191
1064.91953,0.85559
1062.85972,0.85899
1060.79991,0.86217
1058.74011,0.86544
1056.68030,0.86838
1054.62050,0.87066
1052.56069,0.87214
1050.50089,0.87275
1048.44108,0.87270
1046.38128,0.87243
1044.32147,0.87230
1042.26166,0.87215
1040.20186,0.87152
1038.14205,0.87048
1036.08225,0.87006
1034.02244,0.87077
1031.96264,0.87196
1029.90283,0.87305
1027.84302,0.87347
1025.78322,0.87219
1023.72341,0.86827
1021.66361,0.86217
1019.60380,0.85714
1017.54400,0.85621
1015.48419,0.85781
1013.42438,0.85775
1011.36458,0.85390
1009.30477,0.84781
1007.24497,0.84218
1005.18516,0.83820
1003.12536,0.83483
1001.06555,0.83004
999.00575,0.82574
996.94594,0.82774
994.88613,0.83693
992.82633,0.84763
990.76652,0.85540
988.70672,0.86034
986.64691,0.86454
984.58711,0.86882
982.52730,0.87192
980.46749,0.87308
978.40769,0.87286
976.34788,0.87213
974.28808,0.87203
972.22827,0.87316
970.16847,0.87501
968.10866,0.87686
966.04885,0.87836
963.98905,0.87939
961.92924,0.88000
959.86944,0.88024
957.80963,0.88015
955.74983,0.87966
953.69002,0.87883
951.63021,0.87803
949.57041,0.87781
947.51060,0.87833
945.45080,0.87939
943.39099,0.88032
941.33119,0.87948
939.27138,0.87488
937.21158,0.86596
935.15177,0.85541
933.09196,0.84740
931.03216,0.84351
928.97235,0.84239
926.91255,0.84253
924.85274,0.84335
922.79294,0.84481
920.73313,0.84759
918.67332,0.85202
916.61352,0.85704
914.55371,0.86160
912.49391,0.86519
910.43410,0.86758
908.37430,0.86903
906.31449,0.87002
904.25468,0.87065
902.19488,0.87053
900.13507,0.86917
898.07527,0.86637
896.01546,0.86224
893.95566,0.85726
891.89585,0.85207
889.83605,0.84720
887.77624,0.84341
885.71643,0.84189
883.65663,0.84339
881.59682,0.84733
879.53702,0.85226
877.47721,0.85734
875.41741,0.86224
873.35760,0.86620
871.29779,0.86897
869.23799,0.87112
867.17818,0.87275
865.11838,0.87374
863.05857,0.87476
860.99877,0.87627
858.93896,0.87788
856.87915,0.87922
854.81935,0.88004
852.75954,0.88006
850.69974,0.87915
848.63993,0.87766
846.58013,0.87579
844.52032,0.87296
842.46051,0.86854
840.40071,0.86276
838.34090,0.85616
836.28110,0.84901
834.22129,0.84205
832.16149,0.83519
830.10168,0.82605
828.04188,0.81422
825.98207,0.80473
823.92226,0.80325
821.86246,0.80978
819.80265,0.81996
817.74285,0.82950
815.68304,0.83575
813.62324,0.83871
811.56343,0.84040
809.50362,0.84148
807.44382,0.84084
805.38401,0.83743
803.32421,0.83171
801.26440,0.82651
799.20460,0.82490
797.14479,0.82730
795.08498,0.83179
793.02518,0.83603
790.96537,0.83895
788.90557,0.84201
786.84576,0.84689
784.78596,0.85198
782.72615,0.85341
780.66635,0.84845
778.60654,0.83792
776.54673,0.82466
774.48693,0.81008
772.42712,0.79466
770.36732,0.77939
768.30751,0.76494
766.24771,0.75156
764.18790,0.74042
762.12809,0.73322
760.06829,0.73009
758.00848,0.72945
755.94868,0.72830
753.88887,0.72389
751.82907,0.71821
749.76926,0.71699
747.70945,0.72334
745.64965,0.73534
743.58984,0.74858
741.53004,0.75959
739.47023,0.76835
737.41043,0.77612
735.35062,0.78301
733.29081,0.78891
731.23101,0.79409
729.17120,0.79913
727.11140,0.80432
725.05159,0.80896
722.99179,0.81252
720.93198,0.81541
718.87218,0.81808
716.81237,0.82090
714.75256,0.82405
712.69276,0.82720
710.63295,0.83003
708.57315,0.83293
706.51334,0.83601
704.45354,0.83834
702.39373,0.83873
700.33392,0.83657
698.27412,0.83277
696.21431,0.82907
694.15451,0.82616
692.09470,0.82272
690.03490,0.81680
687.97509,0.80855
685.91528,0.80076
683.85548,0.79624
681.79567,0.79593
679.73587,0.79873
677.67606,0.80227
675.61626,0.80464
673.55645,0.80545
671.49665,0.80569
669.43684,0.80608
667.37703,0.80723
665.31723,0.80901
663.25742,0.80990
661.19762,0.80946
659.13781,0.80865
657.07801,0.80861
655.01820,0.80981
652.95839,0.81150
650.89859,0.81079
648.83878,0.80480
646.77898,0.79586
644.71917,0.79104
642.65937,0.79348
640.59956,0.79931
638.53975,0.80400
636.47995,0.80680
634.42014,0.80864
632.36034,0.81031
630.30053,0.81283
628.24073,0.81613
626.18092,0.81929
624.12112,0.82164
622.06131,0.82346
620.00150,0.82524
617.94170,0.82637
615.88189,0.82707
613.82209,0.82859
611.76228,0.83066
609.70248,0.83259
607.64267,0.83423
605.58286,0.83468
603.52306,0.83428
601.46325,0.83456
599.40345,0.83552
597.34364,0.83663
595.28384,0.83777
593.22403,0.83707
591.16422,0.83219
589.10442,0.82509
587.04461,0.81985
584.98481,0.81964
582.92500,0.82426
580.86520,0.82875
578.80539,0.83049
576.74558,0.83125
574.68578,0.83204
572.62597,0.83255
570.56617,0.83299
568.50636,0.83313
566.44656,0.83131
564.38675,0.82672
562.32695,0.81996
560.26714,0.81236
558.20733,0.80649
556.14753,0.80433
554.08772,0.80477
552.02792,0.80377
549.96811,0.79920
547.90831,0.79500
545.84850,0.79604
543.78869,0.80113
541.72889,0.80556
539.66908,0.80675
537.60928,0.80537
535.54947,0.80236
533.48967,0.79954
531.42986,0.80124
529.37005,0.80750
527.31025,0.81413
525.25044,0.81890
523.19064,0.82047
521.13083,0.81918
519.07103,0.81703
517.01122,0.81450
514.95142,0.81149
512.89161,0.80873
510.83180,0.80638
508.77200,0.80495
506.71219,0.80506
504.65239,0.80456
502.59258,0.80035
500.53278,0.79480
498.47297,0.79381
496.41316,0.79858
494.35336,0.80642
492.29355,0.81382
490.23375,0.81825
488.17394,0.82069
486.11414,0.82226
484.05433,0.82098
481.99452,0.81616
479.93472,0.81085
477.87491,0.80791
475.81511,0.80821
473.75530,0.81193
471.69550,0.81705
469.63569,0.81938
467.57588,0.81920
465.51608,0.81881
463.45627,0.82018
461.39647,0.82448
459.33666,0.82961
457.27686,0.83268
455.21705,0.83313
453.15725,0.83240
451.09744,0.83207
449.03763,0.83177
446.97783,0.83034
444.91802,0.82782
442.85822,0.82411
440.79841,0.81992
438.73861,0.81787
436.67880,0.81748
434.61899,0.81441
432.55919,0.80897
430.49938,0.80529
428.43958,0.80395
426.37977,0.80239
424.31997,0.79956
422.26016,0.79692
420.20035,0.79562
418.14055,0.80073
416.08074,0.80945
414.02094,0.81408
411.96113,0.81320
409.90133,0.80896
407.84152,0.80680
405.78172,0.80638
403.72191,0.80530
401.66210,0.80448
399.60230,0.80531
